# wavelength(nm) i
674.0 0.002501324
675.0 0.0037194392
676.0 0.0055119455588931
677.0 0.007794117
678.0 0.010830845
679.0 0.0146852072
680.0 0.0192107142
681.0 0.025334347736117
682.0 0.032708432008491
683.0 0.040734862364319
684.0 0.050300766
685.0 0.060985682961718
686.0 0.072564920999545
687.0 0.085625012453895
688.0 0.10057387805649
689.0 0.1156831236683
690.0 0.131330589
691.0 0.1470532554
692.0 0.1629604892
693.0 0.17864664474468
694.0 0.194137902
695.0 0.208609299
696.0 0.2229012770145
697.0 0.23613942628029
698.0 0.2481440942
699.0 0.259823312
700.0 0.2714021446834
701.0 0.2815716
702.0 0.2915210064
703.0 0.30062548595374
704.0 0.3079025898825
705.0 0.31463063159148
706.0 0.32089884048016
707.0 0.32638719742596
708.0 0.3307208815525
709.0 0.33588263918396
710.0 0.3405068427
711.0 0.3449432265
712.0 0.3491087872
713.0 0.3532423789
714.0 0.3569818385
715.0 0.360267795
716.0 0.363711313
717.0 0.3665597509
718.0 0.369525104
719.0 0.3718853296
720.0 0.3744570073
721.0 0.3766080643
722.0 0.3785303146
723.0 0.3807078602
724.0 0.3826164095
725.0 0.384294782
726.0 0.38623119
727.0 0.38745651793073
728.0 0.388772832
729.0 0.390252552
730.0 0.391529808
731.0 0.392746416
732.0 0.394407624
733.0 0.39590148
734.0 0.396868656
735.0 0.39790864998406
736.0 0.39821794730508
737.0 0.39836491322099
738.0 0.39816096519277
739.0 0.39823853739211
740.0 0.39825681746886
741.0 0.39821355663391
742.0 0.3983772624
743.0 0.3989202354
744.0 0.399175275
745.0 0.3994330182
746.0 0.3994271604
747.0 0.39971107118376
748.0 0.399362733
749.0 0.3996299736
750.0 0.3996587672
751.0 0.3998994637
752.0 0.3998994637
753.0 0.39961940078956
754.0 0.3995238704
755.0 0.39888893282823
756.0 0.3981032018986
757.0 0.39722741252279
758.0 0.39629664690785
759.0 0.39519793342563
760.0 0.3949837752
761.0 0.3943009539
762.0 0.3943350726
763.0 0.39381684421173
764.0 0.3936855664
765.0 0.3936559256
766.0 0.39365858
767.0 0.39367433602601
768.0 0.39217354622718
769.0 0.39049261471351
770.0 0.38885457111215
771.0 0.38765905206821
772.0 0.38602321089715
773.0 0.38427374280408
774.0 0.3829540596
775.0 0.3822982559
776.0 0.382264278
777.0 0.3819554662
778.0 0.3819533157
779.0 0.3816384825
780.0 0.3815989133
781.0 0.3815584839
782.0 0.3812341885
783.0 0.3809055921
784.0 0.3805357061
785.0 0.3805236633
786.0 0.3805111904
787.0 0.3801684007
788.0 0.3794884126
789.0 0.379468628
790.0 0.3790712156
791.0 0.3780690826
792.0 0.3770966265
793.0 0.3773607079
794.0 0.3764552064795
795.0 0.37362536747563
796.0 0.37126186161308
797.0 0.36933087717999
798.0 0.36670418868783
799.0 0.36436744321563
800.0 0.3627157344
801.0 0.36134052339559
802.0 0.3602938632
803.0 0.3589298792
804.0 0.3585738208
805.0 0.357545812
806.0 0.3562537928
807.0 0.35456241941667
808.0 0.35345566614985
809.0 0.35060613461449
810.0 0.34816642432024
811.0 0.34596535199303
812.0 0.34378192041913
813.0 0.34173698831411
814.0 0.34009421447712
815.0 0.33816488456743
816.0 0.33576100074511
817.0 0.33479634836438
818.0 0.33381316301142
819.0 0.33266626864769
820.0 0.3323725666465
821.0 0.33192419958576
822.0 0.33132671427416
823.0 0.33166931165367
824.0 0.3326398842
825.0 0.33359585938722
826.0 0.3340560529549
827.0 0.33351004492644
828.0 0.33275093974868
829.0 0.33226739151372
830.0 0.33114440797599
831.0 0.33009044553159
832.0 0.32837165723216
833.0 0.32618067083977
834.0 0.32218798373795
835.0 0.31767751163778
836.0 0.31120035479209
837.0 0.30342645399042
838.0 0.29379259927459
839.0 0.28125965313603
840.0 0.26698402912662
841.0 0.25029246841522
842.0 0.23429194332786
843.0 0.21689251449764
844.0 0.19959459868983
845.0 0.18228555445389
846.0 0.16555979396988
847.0 0.1493379466
848.0 0.13445638414674
849.0 0.12090295625321
850.0 0.10778257908785
851.0 0.095773028378495
852.0 0.084251218149509
853.0 0.074277307312784
854.0 0.065168602310385
855.0 0.056843869835083
856.0 0.049956507224246
857.0 0.044079938642738
858.0 0.038686136012864
859.0 0.033793247439386
860.0 0.029731855919458
861.0 0.02592574221834
862.0 0.022531825771998
863.0 0.020130121949373
864.0 0.017617324256724
865.0 0.015261986574062
866.0 0.013672147130124
867.0 0.011928163225887
868.0 0.010317864233449
869.0 0.0093269604051625
870.0 0.0085041865523957
871.0 0.0074109281990462
872.0 0.0064053911200158
873.0 0.0058956895080832
874.0 0.0052161710015731
875.0 0.0046295891589963
876.0 0.0041691329170654
877.0 0.0038099235633011
878.0 0.0033610574046672
879.0 0.0029007018299343
880.0 0.0026747376978027
881.0 0.0023707550896365
882.0 0.0021543154745689
883.0 0.0020025050751558
884.0 0.0018261205313011
885.0 0.0015944730917607
886.0 0.0014208184186717
887.0 0.0013446954525044
888.0 0.0012063998124538
